# Time t    MSD(t)    d/dt MSD(t)
0.000000   0.000000   0.000000
0.249792   0.218623   0.763535
0.499583   0.381449   0.633056
0.749375   0.534887   0.592992
0.999167   0.677698   0.532192
1.248958   0.800761   0.468843
1.498750   0.911924   0.455235
1.748542   1.028189   0.465178
1.998333   1.144319   0.457787
2.248125   1.256892   0.453261
2.497917   1.370761   0.437205
2.747708   1.475312   0.397057
2.997500   1.569124   0.377649
3.247292   1.663979   0.412290
3.497083   1.775097   0.444530
3.746875   1.886059   0.429109
3.996667   1.989473   0.416529
4.246458   2.094150   0.433062
4.496250   2.205824   0.453372
4.746042   2.320647   0.448200
4.995833   2.429737   0.425884
5.245625   2.533411   0.389650
5.495417   2.624399   0.366826
5.745208   2.716672   0.399788
5.995000   2.824127   0.452266
6.244792   2.942616   0.491010
6.494583   3.069428   0.513038
6.744375   3.198921   0.524751
6.994167   3.331584   0.526493
7.243958   3.461949   0.537531
7.493750   3.600126   0.548257
7.743542   3.735849   0.539029
7.993333   3.869416   0.576972
8.243125   4.024095   0.647053
8.492917   4.192672   0.662776
8.742708   4.355206   0.649589
8.992500   4.517196   0.661497
9.242292   4.685679   0.658382
9.492083   4.846113   0.650899
9.741875   5.010857   0.673616
9.991667   5.182640   0.691398
10.241458   5.356268   0.685732
10.491250   5.525220   0.689810
10.741042   5.700886   0.732631
10.990833   5.891231   0.778337
11.240625   6.089730   0.775132
11.490417   6.278474   0.745655
11.740208   6.462247   0.750431
11.990000   6.653376   0.770163
12.239792   6.847008   0.740275
12.489583   7.023206   0.738861
12.739375   7.216130   0.751029
12.989167   7.398407   0.696903
13.238958   7.564292   0.656521
13.488750   7.726394   0.630124
13.738542   7.879091   0.631184
13.988333   8.041723   0.626357
14.238125   8.192009   0.587574
14.487917   8.335265   0.577387
14.737708   8.480462   0.541157
14.987500   8.605618   0.501374
15.237292   8.730940   0.551675
15.487083   8.881226   0.621735
15.736875   9.041548   0.650645
15.986667   9.206277   0.644914
16.236458   9.363736   0.625881
16.486250   9.518957   0.639870
16.736042   9.683404   0.648518
16.985833   9.842946   0.680148
17.235625   10.023195   0.735329
17.485417   10.210304   0.719033
17.735208   10.382412   0.692292
17.985000   10.556162   0.677186
18.234792   10.720723   0.634987
18.484583   10.873390   0.653262
18.734375   11.047081   0.691138
18.984167   11.218671   0.668833
19.233958   11.381219   0.670958
19.483750   11.553871   0.681469
19.733542   11.721670   0.662617
19.983333   11.884904   0.594578
20.233125   12.018712   0.510243
20.482917   12.139813   0.483909
20.732708   12.260465   0.454189
20.982500   12.366718   0.440448
21.232292   12.480505   0.459263
21.482083   12.596158   0.467702
21.731875   12.714161   0.480402
21.981667   12.836159   0.468067
22.231458   12.947999   0.439006
22.481250   13.055479   0.426537
22.731042   13.161090   0.415372
22.980833   13.262992   0.446907
23.230625   13.384357   0.498589
23.480417   13.512079   0.480581
23.730208   13.624447   0.493285
23.980000   13.758516   0.555585
24.229792   13.902008   0.508232
24.479583   14.012420   0.458332
24.729375   14.130983   0.469490
24.979167   14.246969   0.475250
25.228958   14.368410   0.500853
25.478750   14.497187   0.535998
25.728542   14.636186   0.591403
25.978333   14.792642   0.586610
26.228125   14.929247   0.556440
26.477917   15.070630   0.559336
26.727708   15.208681   0.562129
26.977500   15.351460   0.606780
27.227292   15.511819   0.669679
27.477083   15.686021   0.712106
27.726875   15.867575   0.743827
27.976667   16.057624   0.741180
28.226458   16.237856   0.719064
28.476250   16.416856   0.734838
28.726042   16.604969   0.744256
28.975833   16.788674   0.719463
29.225625   16.964401   0.746513
29.475417   17.161620   0.793705
29.725208   17.360923   0.852616
29.975000   17.587573   0.953884
30.224792   17.837468   0.997412
30.474583   18.085863   0.973103
30.724375   18.323614   0.908870
30.974167   18.539919   0.851901
31.223958   18.749209   0.831784
31.473750   18.955465   0.866899
31.723542   19.182298   0.941520
31.973333   19.425832   0.954096
32.223125   19.658948   0.954286
32.472917   19.902578   0.965098
32.722708   20.141095   0.945678
32.972500   20.375023   0.955756
33.222292   20.618575   0.920087
33.472083   20.834683   0.817687
33.721875   21.027077   0.771757
33.971667   21.220240   0.745748
34.221458   21.399641   0.639947
34.471250   21.539947   0.555231
34.721042   21.677025   0.506396
34.970833   21.792934   0.415119
35.220625   21.884411   0.399133
35.470417   21.992334   0.448854
35.720208   22.108651   0.486879
35.970000   22.235570   0.494503
36.219792   22.355697   0.415646
36.469583   22.443220   0.307205
36.719375   22.509171   0.248410
36.969167   22.567322   0.288537
37.218958   22.653320   0.324112
37.468750   22.729243   0.275385
37.718542   22.790897   0.249763
37.968333   22.854021   0.246137
38.218125   22.913863   0.272377
38.467917   22.990096   0.306377
38.717708   23.066924   0.287409
38.967500   23.133681   0.342849
39.217292   23.238206   0.503034
39.467083   23.384988   0.547826
39.716875   23.511891   0.486545
39.966667   23.628057   0.503823
40.216458   23.763592   0.545364
40.466250   23.900512   0.519843
40.716042   24.023297   0.492940
40.965833   24.146777   0.490164
41.215625   24.268175   0.554319
41.465417   24.423705   0.662916
41.715208   24.599357   0.741376
41.965000   24.794085   0.776349
42.214792   24.987208   0.774701
42.464583   25.181112   0.840660
42.714375   25.407187   0.898078
42.964167   25.629777   0.873626
43.213958   25.843636   0.841294
43.463750   26.050074   0.852199
43.713542   26.269381   0.886701
43.963333   26.493055   0.871091
44.213125   26.704563   0.842689
44.462917   26.914049   0.804300
44.712708   27.106378   0.801096
44.962500   27.314263   0.777168
45.212292   27.494638   0.727211
45.462083   27.677565   0.714954
45.711875   27.851817   0.705047
45.961667   28.029795   0.722008
46.211458   28.212520   0.722239
46.461250   28.390613   0.723882
46.711042   28.574160   0.690391
46.960833   28.735521   0.649511
47.210625   28.898645   0.690198
47.460417   29.080333   0.713587
47.710208   29.255141   0.703392
47.960000   29.431736   0.722383
48.209792   29.616032   0.771290
48.459583   29.817060   0.776079
48.709375   30.003748   0.767700
48.959167   30.200589   0.780724
49.208958   30.393784   0.729159
49.458750   30.564865   0.701022
49.708542   30.744003   0.737037
49.958333   30.933077   0.805983
50.208125   31.146659   0.788150
50.457917   31.326823   0.797608
50.707708   31.545130   0.891159
50.957500   31.772031   0.909932
51.207292   31.999717   0.918569
51.457083   32.230933   0.918538
51.706875   32.458604   0.908655
51.956667   32.684882   0.868883
52.206458   32.892683   0.781787
52.456250   33.075450   0.697840
52.706042   33.241312   0.637529
52.955833   33.393949   0.570877
53.205625   33.526513   0.535312
53.455417   33.661382   0.554002
53.705208   33.803283   0.617978
53.955000   33.970113   0.669226
54.204792   34.137617   0.662714
54.454583   34.301194   0.736577
54.704375   34.505599   0.818301
