# Time t    MSD(t)    d/dt MSD(t)
0.000000   0.000000   0.000000
0.249792   0.205924   0.688564
0.499583   0.343995   0.521095
0.749375   0.466254   0.483945
0.999167   0.585766   0.484855
1.248958   0.708479   0.497486
1.498750   0.834302   0.515117
1.748542   0.965823   0.537327
1.998333   1.102742   0.538495
2.248125   1.234846   0.536067
2.497917   1.370552   0.533626
2.747708   1.501437   0.516754
2.997500   1.628714   0.507948
3.247292   1.755199   0.501756
3.497083   1.879383   0.496391
3.746875   2.003188   0.497240
3.996667   2.127795   0.509906
4.246458   2.257929   0.518332
4.496250   2.386746   0.522022
4.746042   2.518722   0.514091
4.995833   2.643577   0.515472
5.245625   2.776243   0.551528
5.495417   2.919111   0.575778
5.745208   3.063892   0.577625
5.995000   3.207683   0.589965
6.244792   3.358629   0.602184
6.494583   3.508524   0.601394
6.744375   3.659075   0.602865
6.994167   3.809705   0.604498
7.243958   3.961072   0.613707
7.493750   4.116303   0.628071
7.743542   4.274846   0.626216
7.993333   4.429151   0.609221
8.243125   4.579203   0.603824
8.492917   4.730811   0.625260
8.742708   4.891572   0.631702
8.992500   5.046399   0.618431
9.242292   5.200530   0.603827
9.492083   5.348061   0.594171
9.741875   5.497369   0.615798
9.991667   5.655704   0.652148
10.241458   5.823171   0.670391
10.491250   5.990620   0.657381
10.741042   6.151588   0.650075
10.990833   6.315387   0.642935
11.240625   6.472787   0.623251
11.490417   6.626753   0.606011
11.740208   6.775540   0.598171
11.990000   6.925589   0.616268
12.239792   7.083417   0.640853
12.489583   7.245749   0.667203
12.739375   7.416740   0.678295
12.989167   7.584614   0.657553
13.238958   7.745243   0.640652
13.488750   7.904672   0.640708
13.738542   8.065330   0.646853
13.988333   8.227829   0.670229
14.238125   8.400165   0.685267
14.487917   8.570177   0.677347
14.737708   8.738556   0.693377
14.987500   8.916577   0.701670
15.237292   9.089099   0.677976
15.487083   9.255282   0.651568
15.736875   9.414612   0.629143
15.986667   9.569592   0.606027
16.236458   9.717373   0.589865
16.486250   9.864278   0.569687
16.736042   10.001979   0.548365
16.985833   10.138232   0.548023
17.235625   10.275762   0.573620
17.485417   10.424803   0.596805
17.735208   10.573916   0.593013
17.985000   10.721063   0.564673
18.234792   10.856018   0.527174
18.484583   10.984430   0.515509
18.734375   11.113558   0.511783
18.984167   11.240108   0.510757
19.233958   11.368723   0.523346
19.483750   11.501563   0.531207
19.733542   11.634106   0.524165
19.983333   11.763427   0.483284
20.233125   11.875546   0.445719
20.482917   11.986101   0.446853
20.732708   12.098786   0.450776
20.982500   12.211302   0.448571
21.232292   12.322885   0.455213
21.482083   12.438718   0.459862
21.731875   12.552625   0.456918
21.981667   12.666987   0.461870
22.231458   12.783367   0.468963
22.481250   12.901273   0.473790
22.731042   13.020065   0.478457
22.980833   13.140302   0.489941
23.230625   13.264831   0.482169
23.480417   13.381186   0.466970
23.730208   13.498121   0.461685
23.980000   13.611836   0.422973
24.229792   13.709432   0.379497
24.479583   13.801426   0.388730
24.729375   13.903635   0.414681
24.979167   14.008594   0.428839
25.228958   14.117875   0.442805
25.478750   14.229812   0.443610
25.728542   14.339496   0.453586
25.978333   14.456416   0.485165
26.228125   14.581876   0.492972
26.477917   14.702697   0.485369
26.727708   14.824358   0.504001
26.977500   14.954487   0.537704
27.227292   15.092986   0.542977
27.477083   15.225750   0.516731
27.726875   15.351136   0.508153
27.976667   15.479614   0.536135
28.226458   15.618980   0.538636
28.476250   15.748708   0.499264
28.726042   15.868404   0.477828
28.975833   15.987423   0.478328
29.225625   16.107369   0.475450
29.475417   16.224950   0.473165
29.725208   16.343754   0.447808
29.975000   16.448667   0.446330
30.224792   16.566733   0.487753
30.474583   16.692340   0.497562
30.724375   16.815307   0.497781
30.974167   16.941023   0.516194
31.223958   17.073189   0.529556
31.473750   17.205581   0.547010
31.723542   17.346466   0.575671
31.973333   17.493177   0.601961
32.223125   17.647196   0.624804
32.472917   17.805318   0.626072
32.722708   17.959970   0.604243
32.972500   18.107188   0.569918
33.222292   18.244692   0.564285
33.472083   18.389096   0.549124
33.721875   18.519025   0.533053
33.971667   18.655400   0.565907
34.221458   18.801743   0.607876
34.471250   18.959085   0.625198
34.721042   19.114081   0.626144
34.970833   19.271896   0.612067
35.220625   19.419860   0.579518
35.470417   19.561414   0.566217
35.720208   19.702732   0.567574
35.970000   19.844964   0.554729
36.219792   19.979866   0.541702
36.469583   20.115590   0.546741
36.719375   20.253009   0.548651
36.969167   20.389686   0.537483
37.218958   20.521526   0.518095
37.468750   20.648518   0.534406
37.718542   20.788507   0.548455
37.968333   20.922517   0.520312
38.218125   21.048446   0.512913
38.467917   21.178760   0.514648
38.717708   21.305556   0.508557
38.967500   21.432826   0.517264
39.217292   21.563972   0.509464
39.467083   21.687346   0.497939
39.716875   21.812734   0.521400
39.966667   21.947828   0.537685
40.216458   22.081353   0.528698
40.466250   22.211957   0.534211
40.716042   22.348236   0.545981
40.965833   22.484720   0.529847
41.215625   22.612939   0.511337
41.465417   22.740176   0.481977
41.715208   22.853726   0.440533
41.965000   22.960258   0.415512
42.214792   23.061309   0.392901
42.464583   23.156545   0.380564
42.714375   23.251433   0.399708
42.964167   23.356233   0.422200
43.213958   23.462357   0.414284
43.463750   23.563202   0.423214
43.713542   23.673788   0.433281
43.963333   23.779662   0.415722
44.213125   23.881475   0.405513
44.462917   23.982250   0.391962
44.712708   24.077293   0.372129
44.962500   24.168159   0.381737
45.212292   24.268003   0.390032
45.462083   24.363013   0.358744
45.711875   24.447225   0.335095
45.961667   24.530421   0.317325
46.211458   24.605755   0.304260
46.461250   24.682424   0.309751
46.711042   24.760502   0.298771
46.960833   24.831685   0.270497
47.210625   24.895638   0.259721
47.460417   24.961437   0.251950
47.710208   25.021508   0.251983
47.960000   25.087324   0.265881
48.209792   25.154338   0.288286
48.459583   25.231347   0.316082
48.709375   25.312247   0.315833
48.959167   25.389132   0.293285
49.208958   25.458767   0.271552
49.458750   25.524794   0.250724
49.708542   25.584025   0.237120
